Photon    Tot. w/  Tot. wo/ 
Energy    Coherent Coherent 

1.000E-03 1.185E+03 1.183E+03 
2.000E-03 2.263E+03 2.261E+03 
3.000E-03 7.881E+02 7.866E+02 
4.000E-03 3.605E+02 3.592E+02 
5.000E-03 1.934E+02 1.923E+02 
6.000E-03 1.153E+02 1.143E+02 
7.000E-03 7.408E+01 7.324E+01 
8.000E-03 5.032E+01 4.960E+01 
9.000E-03 3.569E+01 3.506E+01 
1.000E-02 2.621E+01 2.566E+01 
1.100E-02 1.981E+01 1.933E+01 
1.200E-02 1.534E+01 1.491E+01 
1.300E-02 1.212E+01 1.173E+01 
1.400E-02 9.744E+00 9.397E+00 
1.500E-02 7.955E+00 7.641E+00 
1.600E-02 6.583E+00 6.298E+00 
1.700E-02 5.513E+00 5.252E+00 
1.800E-02 4.667E+00 4.428E+00 
1.900E-02 3.990E+00 3.769E+00 
2.000E-02 3.442E+00 3.237E+00 
2.100E-02 2.993E+00 2.803E+00 
2.200E-02 2.623E+00 2.445E+00 
2.300E-02 2.314E+00 2.148E+00 
2.400E-02 2.055E+00 1.900E+00 
2.500E-02 1.836E+00 1.690E+00 
2.600E-02 1.649E+00 1.512E+00 
2.700E-02 1.489E+00 1.360E+00 
2.800E-02 1.351E+00 1.229E+00 
2.900E-02 1.232E+00 1.116E+00 
3.000E-02 1.128E+00 1.019E+00 
3.100E-02 1.037E+00 9.334E-01 
3.200E-02 9.576E-01 8.588E-01 
3.300E-02 8.873E-01 7.932E-01 
3.400E-02 8.250E-01 7.353E-01 
3.500E-02 7.696E-01 6.841E-01 
3.600E-02 7.202E-01 6.386E-01 
3.700E-02 6.760E-01 5.980E-01 
3.800E-02 6.364E-01 5.617E-01 
3.900E-02 6.007E-01 5.291E-01 
4.000E-02 5.684E-01 4.998E-01 
4.100E-02 5.392E-01 4.734E-01 
4.200E-02 5.128E-01 4.496E-01 
4.300E-02 4.886E-01 4.279E-01 
4.400E-02 4.667E-01 4.083E-01 
4.500E-02 4.466E-01 3.904E-01 
4.600E-02 4.281E-01 3.741E-01 
4.700E-02 4.112E-01 3.591E-01 
4.800E-02 3.957E-01 3.455E-01 
4.900E-02 3.814E-01 3.329E-01 
5.000E-02 3.681E-01 3.214E-01 
5.100E-02 3.559E-01 3.107E-01 
5.200E-02 3.446E-01 3.009E-01 
5.300E-02 3.340E-01 2.918E-01 
5.400E-02 3.242E-01 2.834E-01 
5.500E-02 3.151E-01 2.756E-01 
5.600E-02 3.066E-01 2.683E-01 
5.700E-02 2.987E-01 2.616E-01 
5.800E-02 2.913E-01 2.553E-01 
5.900E-02 2.843E-01 2.494E-01 
6.000E-02 2.778E-01 2.440E-01 
6.100E-02 2.717E-01 2.388E-01 
6.200E-02 2.659E-01 2.340E-01 
6.300E-02 2.605E-01 2.295E-01 
6.400E-02 2.554E-01 2.253E-01 
6.500E-02 2.506E-01 2.213E-01 
6.600E-02 2.460E-01 2.175E-01 
6.700E-02 2.417E-01 2.140E-01 
6.800E-02 2.376E-01 2.106E-01 
6.900E-02 2.338E-01 2.075E-01 
7.000E-02 2.301E-01 2.045E-01 
7.100E-02 2.266E-01 2.017E-01 
7.200E-02 2.233E-01 1.990E-01 
7.300E-02 2.202E-01 1.964E-01 
7.400E-02 2.172E-01 1.940E-01 
7.500E-02 2.143E-01 1.917E-01 
7.600E-02 2.116E-01 1.895E-01 
7.700E-02 2.089E-01 1.874E-01 
7.800E-02 2.064E-01 1.854E-01 
7.900E-02 2.041E-01 1.835E-01 
8.000E-02 2.018E-01 1.817E-01 
8.100E-02 1.996E-01 1.800E-01 
8.200E-02 1.975E-01 1.783E-01 
8.300E-02 1.955E-01 1.767E-01 
8.400E-02 1.935E-01 1.752E-01 
8.500E-02 1.917E-01 1.737E-01 
8.600E-02 1.899E-01 1.723E-01 
8.700E-02 1.881E-01 1.710E-01 
8.800E-02 1.865E-01 1.697E-01 
8.900E-02 1.849E-01 1.684E-01 
9.000E-02 1.833E-01 1.672E-01 
9.100E-02 1.818E-01 1.661E-01 
9.200E-02 1.804E-01 1.649E-01 
9.300E-02 1.790E-01 1.638E-01 
9.400E-02 1.777E-01 1.628E-01 
9.500E-02 1.764E-01 1.618E-01 
9.600E-02 1.751E-01 1.608E-01 
9.700E-02 1.739E-01 1.599E-01 
9.800E-02 1.727E-01 1.589E-01 
9.900E-02 1.715E-01 1.580E-01 
1.000E-01 1.704E-01 1.572E-01 
1.010E-01 1.693E-01 1.563E-01 
1.020E-01 1.683E-01 1.555E-01 
1.030E-01 1.673E-01 1.547E-01 
1.040E-01 1.663E-01 1.540E-01 
1.050E-01 1.653E-01 1.532E-01 
1.060E-01 1.644E-01 1.525E-01 
1.070E-01 1.634E-01 1.518E-01 
1.080E-01 1.625E-01 1.511E-01 
1.090E-01 1.617E-01 1.504E-01 
1.100E-01 1.608E-01 1.498E-01 
1.110E-01 1.600E-01 1.491E-01 
1.120E-01 1.592E-01 1.485E-01 
1.130E-01 1.584E-01 1.479E-01 
1.140E-01 1.576E-01 1.473E-01 
1.150E-01 1.569E-01 1.467E-01 
1.160E-01 1.561E-01 1.461E-01 
1.170E-01 1.554E-01 1.456E-01 
1.180E-01 1.547E-01 1.450E-01 
1.190E-01 1.540E-01 1.445E-01 
1.200E-01 1.533E-01 1.440E-01 
1.210E-01 1.527E-01 1.434E-01 
1.220E-01 1.520E-01 1.429E-01 
1.230E-01 1.514E-01 1.424E-01 
1.240E-01 1.508E-01 1.420E-01 
1.250E-01 1.502E-01 1.415E-01 
1.260E-01 1.496E-01 1.410E-01 
1.270E-01 1.490E-01 1.405E-01 
1.280E-01 1.484E-01 1.401E-01 
1.290E-01 1.478E-01 1.397E-01 
1.300E-01 1.473E-01 1.392E-01 
1.310E-01 1.467E-01 1.388E-01 
1.320E-01 1.462E-01 1.384E-01 
1.330E-01 1.457E-01 1.379E-01 
1.340E-01 1.451E-01 1.375E-01 
1.350E-01 1.446E-01 1.371E-01 
1.360E-01 1.441E-01 1.367E-01 
1.370E-01 1.436E-01 1.363E-01 
1.380E-01 1.431E-01 1.360E-01 
1.390E-01 1.427E-01 1.356E-01 
1.400E-01 1.422E-01 1.352E-01 
1.410E-01 1.417E-01 1.348E-01 
1.420E-01 1.413E-01 1.345E-01 
1.430E-01 1.408E-01 1.341E-01 
1.440E-01 1.404E-01 1.338E-01 
1.450E-01 1.399E-01 1.334E-01 
1.460E-01 1.395E-01 1.331E-01 
1.470E-01 1.391E-01 1.327E-01 
1.480E-01 1.387E-01 1.324E-01 
1.490E-01 1.383E-01 1.321E-01 
1.500E-01 1.378E-01 1.317E-01 
1.510E-01 1.374E-01 1.314E-01 
1.520E-01 1.370E-01 1.311E-01 
1.530E-01 1.367E-01 1.308E-01 
1.540E-01 1.363E-01 1.304E-01 
1.550E-01 1.359E-01 1.301E-01 
1.560E-01 1.355E-01 1.298E-01 
1.570E-01 1.351E-01 1.295E-01 
1.580E-01 1.348E-01 1.292E-01 
1.590E-01 1.344E-01 1.289E-01 
1.600E-01 1.340E-01 1.286E-01 
1.610E-01 1.337E-01 1.283E-01 
1.620E-01 1.333E-01 1.281E-01 
1.630E-01 1.330E-01 1.278E-01 
1.640E-01 1.326E-01 1.275E-01 
1.650E-01 1.323E-01 1.272E-01 
1.660E-01 1.320E-01 1.269E-01 
1.670E-01 1.316E-01 1.267E-01 
1.680E-01 1.313E-01 1.264E-01 
1.690E-01 1.310E-01 1.261E-01 
1.700E-01 1.307E-01 1.259E-01 
1.710E-01 1.303E-01 1.256E-01 
1.720E-01 1.300E-01 1.253E-01 
1.730E-01 1.297E-01 1.251E-01 
1.740E-01 1.294E-01 1.248E-01 
1.750E-01 1.291E-01 1.246E-01 
1.760E-01 1.288E-01 1.243E-01 
1.770E-01 1.285E-01 1.241E-01 
1.780E-01 1.282E-01 1.238E-01 
1.790E-01 1.279E-01 1.236E-01 
1.800E-01 1.276E-01 1.233E-01 
1.810E-01 1.273E-01 1.231E-01 
1.820E-01 1.270E-01 1.228E-01 
1.830E-01 1.268E-01 1.226E-01 
1.840E-01 1.265E-01 1.224E-01 
1.850E-01 1.262E-01 1.221E-01 
1.860E-01 1.259E-01 1.219E-01 
1.870E-01 1.257E-01 1.217E-01 
1.880E-01 1.254E-01 1.214E-01 
1.890E-01 1.251E-01 1.212E-01 
1.900E-01 1.248E-01 1.210E-01 
1.910E-01 1.246E-01 1.207E-01 
1.920E-01 1.243E-01 1.205E-01 
1.930E-01 1.241E-01 1.203E-01 
1.940E-01 1.238E-01 1.201E-01 
1.950E-01 1.235E-01 1.199E-01 
1.960E-01 1.233E-01 1.197E-01 
1.970E-01 1.230E-01 1.194E-01 
1.980E-01 1.228E-01 1.192E-01 
1.990E-01 1.225E-01 1.190E-01 