Photon    Tot. w/  Tot. wo/ 
Energy    Coherent Coherent 

1.000E-03 8.542E+03 8.534E+03 
2.000E-03 2.319E+03 2.311E+03 
3.000E-03 8.696E+02 8.630E+02 
4.000E-03 4.245E+02 4.188E+02 
5.000E-03 2.414E+02 2.364E+02 
6.000E-03 6.899E+02 6.855E+02 
7.000E-03 4.672E+02 4.632E+02 
8.000E-03 3.335E+02 3.299E+02 
9.000E-03 2.450E+02 2.418E+02 
1.000E-02 1.860E+02 1.831E+02 
1.100E-02 1.443E+02 1.417E+02 
1.200E-02 1.146E+02 1.121E+02 
1.300E-02 9.265E+01 9.043E+01 
1.400E-02 7.615E+01 7.409E+01 
1.500E-02 6.346E+01 6.155E+01 
1.600E-02 5.336E+01 5.158E+01 
1.700E-02 4.535E+01 4.369E+01 
1.800E-02 3.892E+01 3.736E+01 
1.900E-02 3.368E+01 3.223E+01 
2.000E-02 2.938E+01 2.801E+01 
2.100E-02 2.575E+01 2.446E+01 
2.200E-02 2.271E+01 2.150E+01 
2.300E-02 2.015E+01 1.900E+01 
2.400E-02 1.797E+01 1.689E+01 
2.500E-02 1.610E+01 1.508E+01 
2.600E-02 1.450E+01 1.353E+01 
2.700E-02 1.311E+01 1.219E+01 
2.800E-02 1.190E+01 1.103E+01 
2.900E-02 1.084E+01 1.001E+01 
3.000E-02 9.903E+00 9.116E+00 
3.100E-02 9.071E+00 8.321E+00 
3.200E-02 8.334E+00 7.619E+00 
3.300E-02 7.678E+00 6.995E+00 
3.400E-02 7.093E+00 6.439E+00 
3.500E-02 6.569E+00 5.943E+00 
3.600E-02 6.098E+00 5.498E+00 
3.700E-02 5.673E+00 5.097E+00 
3.800E-02 2.808E+01 2.753E+01 
3.900E-02 2.624E+01 2.571E+01 
4.000E-02 2.457E+01 2.406E+01 
4.100E-02 2.305E+01 2.255E+01 
4.200E-02 2.166E+01 2.118E+01 
4.300E-02 2.038E+01 1.992E+01 
4.400E-02 1.921E+01 1.876E+01 
4.500E-02 1.812E+01 1.770E+01 
4.600E-02 1.712E+01 1.671E+01 
4.700E-02 1.620E+01 1.580E+01 
4.800E-02 1.534E+01 1.495E+01 
4.900E-02 1.453E+01 1.416E+01 
5.000E-02 1.379E+01 1.342E+01 
5.100E-02 1.309E+01 1.274E+01 
5.200E-02 1.244E+01 1.210E+01 
5.300E-02 1.183E+01 1.150E+01 
5.400E-02 1.126E+01 1.094E+01 
5.500E-02 1.072E+01 1.041E+01 
5.600E-02 1.022E+01 9.919E+00 
5.700E-02 9.755E+00 9.458E+00 
5.800E-02 9.314E+00 9.026E+00 
5.900E-02 8.900E+00 8.619E+00 
6.000E-02 8.511E+00 8.238E+00 
6.100E-02 8.145E+00 7.879E+00 
6.200E-02 7.800E+00 7.541E+00 
6.300E-02 7.475E+00 7.223E+00 
6.400E-02 7.169E+00 6.923E+00 
6.500E-02 6.880E+00 6.640E+00 
6.600E-02 6.606E+00 6.373E+00 
6.700E-02 6.347E+00 6.120E+00 
6.800E-02 6.102E+00 5.880E+00 
6.900E-02 5.870E+00 5.654E+00 
7.000E-02 5.650E+00 5.439E+00 
7.100E-02 5.441E+00 5.235E+00 
7.200E-02 5.243E+00 5.041E+00 
7.300E-02 5.054E+00 4.857E+00 
7.400E-02 4.875E+00 4.682E+00 
7.500E-02 4.704E+00 4.516E+00 
7.600E-02 4.542E+00 4.357E+00 
7.700E-02 4.387E+00 4.207E+00 
7.800E-02 4.239E+00 4.063E+00 
7.900E-02 4.098E+00 3.925E+00 
8.000E-02 3.963E+00 3.794E+00 
8.100E-02 3.834E+00 3.669E+00 
8.200E-02 3.712E+00 3.550E+00 
8.300E-02 3.594E+00 3.436E+00 
8.400E-02 3.481E+00 3.326E+00 
8.500E-02 3.374E+00 3.222E+00 
8.600E-02 3.271E+00 3.122E+00 
8.700E-02 3.172E+00 3.026E+00 
8.800E-02 3.077E+00 2.934E+00 
8.900E-02 2.986E+00 2.846E+00 
9.000E-02 2.899E+00 2.762E+00 
9.100E-02 2.816E+00 2.681E+00 
9.200E-02 2.735E+00 2.603E+00 
9.300E-02 2.658E+00 2.528E+00 
9.400E-02 2.584E+00 2.457E+00 
9.500E-02 2.513E+00 2.388E+00 
9.600E-02 2.445E+00 2.322E+00 
9.700E-02 2.379E+00 2.258E+00 
9.800E-02 2.315E+00 2.197E+00 
9.900E-02 2.254E+00 2.138E+00 
1.000E-01 2.195E+00 2.081E+00 
1.010E-01 2.139E+00 2.026E+00 
1.020E-01 2.084E+00 1.974E+00 
1.030E-01 2.032E+00 1.923E+00 
1.040E-01 1.981E+00 1.874E+00 
1.050E-01 1.932E+00 1.827E+00 
1.060E-01 1.885E+00 1.781E+00 
1.070E-01 1.839E+00 1.737E+00 
1.080E-01 1.795E+00 1.695E+00 
1.090E-01 1.752E+00 1.654E+00 
1.100E-01 1.711E+00 1.615E+00 
1.110E-01 1.671E+00 1.576E+00 
1.120E-01 1.633E+00 1.539E+00 
1.130E-01 1.596E+00 1.504E+00 
1.140E-01 1.560E+00 1.469E+00 
1.150E-01 1.525E+00 1.436E+00 
1.160E-01 1.491E+00 1.403E+00 
1.170E-01 1.459E+00 1.372E+00 
1.180E-01 1.427E+00 1.342E+00 
1.190E-01 1.397E+00 1.313E+00 
1.200E-01 1.367E+00 1.284E+00 
1.210E-01 1.338E+00 1.257E+00 
1.220E-01 1.310E+00 1.230E+00 
1.230E-01 1.283E+00 1.204E+00 
1.240E-01 1.257E+00 1.179E+00 
1.250E-01 1.232E+00 1.155E+00 
1.260E-01 1.207E+00 1.131E+00 
1.270E-01 1.183E+00 1.108E+00 
1.280E-01 1.160E+00 1.086E+00 
1.290E-01 1.137E+00 1.064E+00 
1.300E-01 1.115E+00 1.043E+00 
1.310E-01 1.094E+00 1.023E+00 
1.320E-01 1.073E+00 1.003E+00 
1.330E-01 1.053E+00 9.842E-01 
1.340E-01 1.034E+00 9.655E-01 
1.350E-01 1.015E+00 9.474E-01 
1.360E-01 9.961E-01 9.297E-01 
1.370E-01 9.780E-01 9.126E-01 
1.380E-01 9.605E-01 8.959E-01 
1.390E-01 9.435E-01 8.797E-01 
1.400E-01 9.268E-01 8.639E-01 
1.410E-01 9.107E-01 8.485E-01 
1.420E-01 8.949E-01 8.335E-01 
1.430E-01 8.796E-01 8.190E-01 
1.440E-01 8.647E-01 8.048E-01 
1.450E-01 8.501E-01 7.910E-01 
1.460E-01 8.359E-01 7.775E-01 
1.470E-01 8.221E-01 7.644E-01 
1.480E-01 8.086E-01 7.516E-01 
1.490E-01 7.955E-01 7.392E-01 
1.500E-01 7.827E-01 7.270E-01 
1.510E-01 7.702E-01 7.152E-01 
1.520E-01 7.580E-01 7.037E-01 
1.530E-01 7.461E-01 6.924E-01 
1.540E-01 7.345E-01 6.814E-01 
1.550E-01 7.232E-01 6.707E-01 
1.560E-01 7.121E-01 6.602E-01 
1.570E-01 7.013E-01 6.500E-01 
1.580E-01 6.908E-01 6.401E-01 
1.590E-01 6.805E-01 6.304E-01 
1.600E-01 6.704E-01 6.209E-01 
1.610E-01 6.606E-01 6.116E-01 
1.620E-01 6.510E-01 6.025E-01 
1.630E-01 6.416E-01 5.937E-01 
1.640E-01 6.324E-01 5.850E-01 
1.650E-01 6.235E-01 5.766E-01 
1.660E-01 6.147E-01 5.684E-01 
1.670E-01 6.061E-01 5.603E-01 
1.680E-01 5.978E-01 5.524E-01 
1.690E-01 5.896E-01 5.447E-01 
1.700E-01 5.815E-01 5.372E-01 
1.710E-01 5.737E-01 5.298E-01 
1.720E-01 5.660E-01 5.226E-01 
1.730E-01 5.585E-01 5.155E-01 
1.740E-01 5.512E-01 5.086E-01 
1.750E-01 5.440E-01 5.019E-01 
1.760E-01 5.369E-01 4.953E-01 
1.770E-01 5.301E-01 4.888E-01 
1.780E-01 5.233E-01 4.825E-01 
1.790E-01 5.167E-01 4.763E-01 
1.800E-01 5.102E-01 4.702E-01 
1.810E-01 5.039E-01 4.643E-01 
1.820E-01 4.977E-01 4.585E-01 
1.830E-01 4.916E-01 4.528E-01 
1.840E-01 4.856E-01 4.472E-01 
1.850E-01 4.798E-01 4.417E-01 
1.860E-01 4.740E-01 4.364E-01 
1.870E-01 4.684E-01 4.311E-01 
1.880E-01 4.629E-01 4.260E-01 
1.890E-01 4.575E-01 4.209E-01 
1.900E-01 4.522E-01 4.160E-01 
1.910E-01 4.470E-01 4.112E-01 
1.920E-01 4.420E-01 4.064E-01 
1.930E-01 4.370E-01 4.017E-01 
1.940E-01 4.321E-01 3.972E-01 
1.950E-01 4.273E-01 3.927E-01 
1.960E-01 4.225E-01 3.883E-01 
1.970E-01 4.179E-01 3.840E-01 
1.980E-01 4.134E-01 3.798E-01 
1.990E-01 4.089E-01 3.756E-01 