Photon    Tot. w/  Tot. wo/ 
Energy    Coherent Coherent 

1.000E-03 2.211E+03 2.210E+03 
2.000E-03 3.026E+02 3.017E+02 
3.000E-03 9.032E+01 8.971E+01 
4.000E-03 3.778E+01 3.732E+01 
5.000E-03 1.912E+01 1.876E+01 
6.000E-03 1.095E+01 1.065E+01 
7.000E-03 6.846E+00 6.601E+00 
8.000E-03 4.576E+00 4.366E+00 
9.000E-03 3.225E+00 3.042E+00 
1.000E-02 2.373E+00 2.211E+00 
1.100E-02 1.811E+00 1.666E+00 
1.200E-02 1.426E+00 1.296E+00 
1.300E-02 1.153E+00 1.035E+00 
1.400E-02 9.551E-01 8.479E-01 
1.500E-02 8.074E-01 7.096E-01 
1.600E-02 6.952E-01 6.056E-01 
1.700E-02 6.084E-01 5.261E-01 
1.800E-02 5.402E-01 4.644E-01 
1.900E-02 4.858E-01 4.159E-01 
2.000E-02 4.420E-01 3.772E-01 
2.100E-02 4.061E-01 3.460E-01 
2.200E-02 3.766E-01 3.207E-01 
2.300E-02 3.519E-01 2.998E-01 
2.400E-02 3.312E-01 2.825E-01 
2.500E-02 3.136E-01 2.681E-01 
2.600E-02 2.986E-01 2.559E-01 
2.700E-02 2.857E-01 2.455E-01 
2.800E-02 2.745E-01 2.367E-01 
2.900E-02 2.647E-01 2.291E-01 
3.000E-02 2.562E-01 2.225E-01 
3.100E-02 2.486E-01 2.168E-01 
3.200E-02 2.419E-01 2.118E-01 
3.300E-02 2.360E-01 2.074E-01 
3.400E-02 2.306E-01 2.034E-01 
3.500E-02 2.258E-01 2.000E-01 
3.600E-02 2.215E-01 1.969E-01 
3.700E-02 2.175E-01 1.941E-01 
3.800E-02 2.139E-01 1.915E-01 
3.900E-02 2.107E-01 1.893E-01 
4.000E-02 2.076E-01 1.872E-01 
4.100E-02 2.049E-01 1.853E-01 
4.200E-02 2.023E-01 1.835E-01 
4.300E-02 1.999E-01 1.819E-01 
4.400E-02 1.977E-01 1.805E-01 
4.500E-02 1.957E-01 1.791E-01 
4.600E-02 1.937E-01 1.778E-01 
4.700E-02 1.919E-01 1.766E-01 
4.800E-02 1.902E-01 1.754E-01 
4.900E-02 1.886E-01 1.744E-01 
5.000E-02 1.871E-01 1.734E-01 
5.100E-02 1.856E-01 1.724E-01 
5.200E-02 1.843E-01 1.715E-01 
5.300E-02 1.830E-01 1.706E-01 
5.400E-02 1.817E-01 1.698E-01 
5.500E-02 1.805E-01 1.690E-01 
5.600E-02 1.794E-01 1.683E-01 
5.700E-02 1.783E-01 1.675E-01 
5.800E-02 1.773E-01 1.668E-01 
5.900E-02 1.763E-01 1.662E-01 
6.000E-02 1.753E-01 1.655E-01 
6.100E-02 1.744E-01 1.649E-01 
6.200E-02 1.735E-01 1.643E-01 
6.300E-02 1.726E-01 1.637E-01 
6.400E-02 1.718E-01 1.631E-01 
6.500E-02 1.710E-01 1.625E-01 
6.600E-02 1.702E-01 1.620E-01 
6.700E-02 1.694E-01 1.614E-01 
6.800E-02 1.687E-01 1.609E-01 
6.900E-02 1.679E-01 1.604E-01 
7.000E-02 1.672E-01 1.599E-01 
7.100E-02 1.666E-01 1.594E-01 
7.200E-02 1.659E-01 1.589E-01 
7.300E-02 1.652E-01 1.584E-01 
7.400E-02 1.646E-01 1.580E-01 
7.500E-02 1.640E-01 1.575E-01 
7.600E-02 1.633E-01 1.570E-01 
7.700E-02 1.627E-01 1.566E-01 
7.800E-02 1.621E-01 1.562E-01 
7.900E-02 1.616E-01 1.557E-01 
8.000E-02 1.610E-01 1.553E-01 
8.100E-02 1.604E-01 1.549E-01 
8.200E-02 1.599E-01 1.545E-01 
8.300E-02 1.594E-01 1.540E-01 
8.400E-02 1.588E-01 1.536E-01 
8.500E-02 1.583E-01 1.532E-01 
8.600E-02 1.578E-01 1.528E-01 
8.700E-02 1.573E-01 1.524E-01 
8.800E-02 1.568E-01 1.520E-01 
8.900E-02 1.563E-01 1.517E-01 
9.000E-02 1.558E-01 1.513E-01 
9.100E-02 1.554E-01 1.509E-01 
9.200E-02 1.549E-01 1.505E-01 
9.300E-02 1.544E-01 1.501E-01 
9.400E-02 1.540E-01 1.498E-01 
9.500E-02 1.535E-01 1.494E-01 
9.600E-02 1.531E-01 1.491E-01 
9.700E-02 1.526E-01 1.487E-01 
9.800E-02 1.522E-01 1.483E-01 
9.900E-02 1.518E-01 1.480E-01
1.000E-01 5.737E+00 5.520E+00 
1.010E-01 5.595E+00 5.381E+00 
1.020E-01 5.458E+00 5.247E+00 
1.030E-01 5.325E+00 5.118E+00 
1.040E-01 5.197E+00 4.993E+00 
1.050E-01 5.074E+00 4.873E+00 
1.060E-01 4.954E+00 4.757E+00 
1.070E-01 4.839E+00 4.644E+00 
1.080E-01 4.727E+00 4.535E+00 
1.090E-01 4.618E+00 4.430E+00 
1.100E-01 4.514E+00 4.328E+00 
1.110E-01 4.412E+00 4.230E+00 
1.120E-01 4.314E+00 4.134E+00 
1.130E-01 4.219E+00 4.042E+00 
1.140E-01 4.127E+00 3.952E+00 
1.150E-01 4.037E+00 3.865E+00 
1.160E-01 3.951E+00 3.781E+00 
1.170E-01 3.866E+00 3.700E+00 
1.180E-01 3.785E+00 3.621E+00 
1.190E-01 3.706E+00 3.544E+00 
1.200E-01 3.629E+00 3.469E+00 
1.210E-01 3.554E+00 3.397E+00 
1.220E-01 3.482E+00 3.327E+00 
1.230E-01 3.412E+00 3.259E+00 
1.240E-01 3.343E+00 3.193E+00 
1.250E-01 3.277E+00 3.128E+00 
1.260E-01 3.212E+00 3.066E+00 
1.270E-01 3.150E+00 3.005E+00 
1.280E-01 3.089E+00 2.946E+00 
1.290E-01 3.029E+00 2.889E+00 
1.300E-01 2.971E+00 2.833E+00 
1.310E-01 2.915E+00 2.778E+00 
1.320E-01 2.860E+00 2.725E+00 
1.330E-01 2.807E+00 2.674E+00 
1.340E-01 2.755E+00 2.624E+00 
1.350E-01 2.705E+00 2.575E+00 
1.360E-01 2.656E+00 2.527E+00 
1.370E-01 2.608E+00 2.481E+00 
1.380E-01 2.561E+00 2.436E+00 
1.390E-01 2.515E+00 2.392E+00 
1.400E-01 2.471E+00 2.349E+00 
1.410E-01 2.428E+00 2.307E+00 
1.420E-01 2.385E+00 2.267E+00 
1.430E-01 2.344E+00 2.227E+00 
1.440E-01 2.304E+00 2.188E+00 
1.450E-01 2.265E+00 2.151E+00 
1.460E-01 2.227E+00 2.114E+00 
1.470E-01 2.189E+00 2.078E+00 
1.480E-01 2.153E+00 2.043E+00 
1.490E-01 2.117E+00 2.008E+00 
1.500E-01 2.082E+00 1.975E+00 
1.510E-01 2.048E+00 1.942E+00 
1.520E-01 2.015E+00 1.910E+00 
1.530E-01 1.983E+00 1.879E+00 
1.540E-01 1.951E+00 1.849E+00 
1.550E-01 1.920E+00 1.819E+00 
1.560E-01 1.890E+00 1.790E+00 
1.570E-01 1.860E+00 1.761E+00 
1.580E-01 1.832E+00 1.733E+00 
1.590E-01 1.803E+00 1.706E+00 
1.600E-01 1.776E+00 1.680E+00 
1.610E-01 1.749E+00 1.654E+00 
1.620E-01 1.722E+00 1.628E+00 
1.630E-01 1.696E+00 1.604E+00 
1.640E-01 1.671E+00 1.579E+00 
1.650E-01 1.646E+00 1.555E+00 
1.660E-01 1.622E+00 1.532E+00 
1.670E-01 1.598E+00 1.509E+00 
1.680E-01 1.575E+00 1.487E+00 
1.690E-01 1.552E+00 1.465E+00 
1.700E-01 1.530E+00 1.444E+00 
1.710E-01 1.508E+00 1.423E+00 
1.720E-01 1.487E+00 1.403E+00 
1.730E-01 1.466E+00 1.383E+00 
1.740E-01 1.446E+00 1.363E+00 
1.750E-01 1.426E+00 1.344E+00 
1.760E-01 1.406E+00 1.325E+00 
1.770E-01 1.387E+00 1.307E+00 
1.780E-01 1.368E+00 1.289E+00 
1.790E-01 1.349E+00 1.271E+00 
1.800E-01 1.331E+00 1.254E+00 
1.810E-01 1.313E+00 1.237E+00 
1.820E-01 1.296E+00 1.220E+00 
1.830E-01 1.279E+00 1.204E+00 
1.840E-01 1.262E+00 1.188E+00 
1.850E-01 1.246E+00 1.172E+00 
1.860E-01 1.230E+00 1.156E+00 
1.870E-01 1.214E+00 1.141E+00 
1.880E-01 1.198E+00 1.127E+00 
1.890E-01 1.183E+00 1.112E+00 
1.900E-01 1.168E+00 1.098E+00 
1.910E-01 1.154E+00 1.084E+00 
1.920E-01 1.139E+00 1.070E+00 
1.930E-01 1.125E+00 1.057E+00 
1.940E-01 1.111E+00 1.043E+00 
1.950E-01 1.098E+00 1.030E+00 
1.960E-01 1.084E+00 1.018E+00 
1.970E-01 1.071E+00 1.005E+00 
1.980E-01 1.058E+00 9.930E-01 
1.990E-01 1.046E+00 9.809E-01 