Photon    Tot. w/  Tot. wo/ 
Energy    Coherent Coherent 

1.000E-03 2.211E+03 2.210E+03 
2.000E-03 3.026E+02 3.017E+02 
3.000E-03 9.032E+01 8.971E+01 
4.000E-03 3.778E+01 3.732E+01 
5.000E-03 1.912E+01 1.876E+01 
6.000E-03 1.095E+01 1.065E+01 
7.000E-03 6.846E+00 6.601E+00 
8.000E-03 4.576E+00 4.366E+00 
9.000E-03 3.225E+00 3.042E+00 
1.000E-02 2.373E+00 2.211E+00 
1.100E-02 1.811E+00 1.666E+00 
1.200E-02 1.426E+00 1.296E+00 
1.300E-02 1.153E+00 1.035E+00 
1.400E-02 9.551E-01 8.479E-01 
1.500E-02 8.074E-01 7.096E-01 
1.600E-02 6.952E-01 6.056E-01 
1.700E-02 6.084E-01 5.261E-01 
1.800E-02 5.402E-01 4.644E-01 
1.900E-02 4.858E-01 4.159E-01 
2.000E-02 4.420E-01 3.772E-01 
2.100E-02 4.061E-01 3.460E-01 
2.200E-02 3.766E-01 3.207E-01 
2.300E-02 3.519E-01 2.998E-01 
2.400E-02 3.312E-01 2.825E-01 
2.500E-02 3.136E-01 2.681E-01 
2.600E-02 2.986E-01 2.559E-01 
2.700E-02 2.857E-01 2.455E-01 
2.800E-02 2.745E-01 2.367E-01 
2.900E-02 2.647E-01 2.291E-01 
3.000E-02 2.562E-01 2.225E-01 
3.100E-02 2.486E-01 2.168E-01 
3.200E-02 2.419E-01 2.118E-01 
3.300E-02 2.360E-01 2.074E-01 
3.400E-02 2.306E-01 2.034E-01 
3.500E-02 2.258E-01 2.000E-01 
3.600E-02 2.215E-01 1.969E-01 
3.700E-02 2.175E-01 1.941E-01 
3.800E-02 2.139E-01 1.915E-01 
3.900E-02 2.107E-01 1.893E-01 
4.000E-02 2.076E-01 1.872E-01 
4.100E-02 2.049E-01 1.853E-01 
4.200E-02 2.023E-01 1.835E-01 
4.300E-02 1.999E-01 1.819E-01 
4.400E-02 1.977E-01 1.805E-01 
4.500E-02 1.957E-01 1.791E-01 
4.600E-02 1.937E-01 1.778E-01 
4.700E-02 1.919E-01 1.766E-01 
4.800E-02 1.902E-01 1.754E-01 
4.900E-02 1.886E-01 1.744E-01 
5.000E-02 1.871E-01 1.734E-01 
5.100E-02 1.856E-01 1.724E-01 
5.200E-02 1.843E-01 1.715E-01 
5.300E-02 1.830E-01 1.706E-01 
5.400E-02 1.817E-01 1.698E-01 
5.500E-02 1.805E-01 1.690E-01 
5.600E-02 1.794E-01 1.683E-01 
5.700E-02 1.783E-01 1.675E-01 
5.800E-02 1.773E-01 1.668E-01 
5.900E-02 1.763E-01 1.662E-01 
6.000E-02 1.753E-01 1.655E-01 
6.100E-02 1.744E-01 1.649E-01 
6.200E-02 1.735E-01 1.643E-01 
6.300E-02 1.726E-01 1.637E-01 
6.400E-02 1.718E-01 1.631E-01 
6.500E-02 1.710E-01 1.625E-01 
6.600E-02 1.702E-01 1.620E-01 
6.700E-02 1.694E-01 1.614E-01 
6.800E-02 1.687E-01 1.609E-01 
6.900E-02 1.679E-01 1.604E-01 
7.000E-02 1.672E-01 1.599E-01 
7.100E-02 1.666E-01 1.594E-01 
7.200E-02 1.659E-01 1.589E-01 
7.300E-02 1.652E-01 1.584E-01 
7.400E-02 1.646E-01 1.580E-01 
7.500E-02 1.640E-01 1.575E-01 
7.600E-02 1.633E-01 1.570E-01 
7.700E-02 1.627E-01 1.566E-01 
7.800E-02 1.621E-01 1.562E-01 
7.900E-02 1.616E-01 1.557E-01 
8.000E-02 1.610E-01 1.553E-01 
8.100E-02 1.604E-01 1.549E-01 
8.200E-02 1.599E-01 1.545E-01 
8.300E-02 1.594E-01 1.540E-01 
8.400E-02 1.588E-01 1.536E-01 
8.500E-02 1.583E-01 1.532E-01 
8.600E-02 1.578E-01 1.528E-01 
8.700E-02 1.573E-01 1.524E-01 
8.800E-02 1.568E-01 1.520E-01 
8.900E-02 1.563E-01 1.517E-01 
9.000E-02 1.558E-01 1.513E-01 
9.100E-02 1.554E-01 1.509E-01 
9.200E-02 1.549E-01 1.505E-01 
9.300E-02 1.544E-01 1.501E-01 
9.400E-02 1.540E-01 1.498E-01 
9.500E-02 1.535E-01 1.494E-01 
9.600E-02 1.531E-01 1.491E-01 
9.700E-02 1.526E-01 1.487E-01 
9.800E-02 1.522E-01 1.483E-01 
9.900E-02 1.518E-01 1.480E-01 
1.000E-01 1.514E-01 1.476E-01 
1.010E-01 1.509E-01 1.473E-01 
1.020E-01 1.505E-01 1.469E-01 
1.030E-01 1.501E-01 1.466E-01 
1.040E-01 1.497E-01 1.463E-01 
1.050E-01 1.493E-01 1.459E-01 
1.060E-01 1.489E-01 1.456E-01 
1.070E-01 1.485E-01 1.453E-01 
1.080E-01 1.481E-01 1.449E-01 
1.090E-01 1.478E-01 1.446E-01 
1.100E-01 1.474E-01 1.443E-01 
1.110E-01 1.470E-01 1.440E-01 
1.120E-01 1.466E-01 1.437E-01 
1.130E-01 1.463E-01 1.433E-01 
1.140E-01 1.459E-01 1.430E-01 
1.150E-01 1.456E-01 1.427E-01 
1.160E-01 1.452E-01 1.424E-01 
1.170E-01 1.448E-01 1.421E-01 
1.180E-01 1.445E-01 1.418E-01 
1.190E-01 1.441E-01 1.415E-01 
1.200E-01 1.438E-01 1.412E-01 
1.210E-01 1.435E-01 1.409E-01 
1.220E-01 1.431E-01 1.406E-01 
1.230E-01 1.428E-01 1.403E-01 
1.240E-01 1.425E-01 1.400E-01 
1.250E-01 1.421E-01 1.397E-01 
1.260E-01 1.418E-01 1.394E-01 
1.270E-01 1.415E-01 1.391E-01 
1.280E-01 1.412E-01 1.389E-01 
1.290E-01 1.408E-01 1.386E-01 
1.300E-01 1.405E-01 1.383E-01 
1.310E-01 1.402E-01 1.380E-01 
1.320E-01 1.399E-01 1.377E-01 
1.330E-01 1.396E-01 1.375E-01 
1.340E-01 1.393E-01 1.372E-01 
1.350E-01 1.390E-01 1.369E-01 
1.360E-01 1.387E-01 1.366E-01 
1.370E-01 1.384E-01 1.364E-01 
1.380E-01 1.381E-01 1.361E-01 
1.390E-01 1.378E-01 1.358E-01 
1.400E-01 1.375E-01 1.356E-01 
1.410E-01 1.372E-01 1.353E-01 
1.420E-01 1.369E-01 1.350E-01 
1.430E-01 1.366E-01 1.348E-01 
1.440E-01 1.363E-01 1.345E-01 
1.450E-01 1.361E-01 1.343E-01 
1.460E-01 1.358E-01 1.340E-01 
1.470E-01 1.355E-01 1.337E-01 
1.480E-01 1.352E-01 1.335E-01 
1.490E-01 1.349E-01 1.332E-01 
1.500E-01 1.347E-01 1.330E-01 
1.510E-01 1.344E-01 1.327E-01 
1.520E-01 1.341E-01 1.325E-01 
1.530E-01 1.339E-01 1.322E-01 
1.540E-01 1.336E-01 1.320E-01 
1.550E-01 1.333E-01 1.318E-01 
1.560E-01 1.331E-01 1.315E-01 
1.570E-01 1.328E-01 1.313E-01 
1.580E-01 1.326E-01 1.310E-01 
1.590E-01 1.323E-01 1.308E-01 
1.600E-01 1.320E-01 1.306E-01 
1.610E-01 1.318E-01 1.303E-01 
1.620E-01 1.315E-01 1.301E-01 
1.630E-01 1.313E-01 1.298E-01 
1.640E-01 1.310E-01 1.296E-01 
1.650E-01 1.308E-01 1.294E-01 
1.660E-01 1.305E-01 1.292E-01 
1.670E-01 1.303E-01 1.289E-01 
1.680E-01 1.300E-01 1.287E-01 
1.690E-01 1.298E-01 1.285E-01 
1.700E-01 1.296E-01 1.282E-01 
1.710E-01 1.293E-01 1.280E-01 
1.720E-01 1.291E-01 1.278E-01 
1.730E-01 1.289E-01 1.276E-01 
1.740E-01 1.286E-01 1.274E-01 
1.750E-01 1.284E-01 1.271E-01 
1.760E-01 1.282E-01 1.269E-01 
1.770E-01 1.279E-01 1.267E-01 
1.780E-01 1.277E-01 1.265E-01 
1.790E-01 1.275E-01 1.263E-01 
1.800E-01 1.272E-01 1.261E-01 
1.810E-01 1.270E-01 1.258E-01 
1.820E-01 1.268E-01 1.256E-01 
1.830E-01 1.266E-01 1.254E-01 
1.840E-01 1.263E-01 1.252E-01 
1.850E-01 1.261E-01 1.250E-01 
1.860E-01 1.259E-01 1.248E-01 
1.870E-01 1.257E-01 1.246E-01 
1.880E-01 1.255E-01 1.244E-01 
1.890E-01 1.252E-01 1.242E-01 
1.900E-01 1.250E-01 1.240E-01 
1.910E-01 1.248E-01 1.238E-01 
1.920E-01 1.246E-01 1.236E-01 
1.930E-01 1.244E-01 1.234E-01 
1.940E-01 1.242E-01 1.232E-01 
1.950E-01 1.240E-01 1.230E-01 
1.960E-01 1.238E-01 1.228E-01 
1.970E-01 1.236E-01 1.226E-01 
1.980E-01 1.234E-01 1.224E-01 
1.990E-01 1.232E-01 1.222E-01 