Photon    Tot. w/  Tot. wo/ 
Energy    Coherent Coherent 

1.000E-03 2.291E+03 2.281E+03 
2.000E-03 3.360E+03 3.351E+03 
3.000E-03 1.292E+03 1.284E+03 
4.000E-03 6.381E+02 6.312E+02 
5.000E-03 3.653E+02 3.592E+02 
6.000E-03 2.305E+02 2.251E+02 
7.000E-03 1.557E+02 1.509E+02 
8.000E-03 4.069E+02 4.025E+02 
9.000E-03 3.502E+02 3.463E+02 
1.000E-02 2.693E+02 2.658E+02 
1.100E-02 2.098E+02 2.066E+02 
1.200E-02 1.671E+02 1.642E+02 
1.300E-02 1.356E+02 1.329E+02 
1.400E-02 1.117E+02 1.093E+02 
1.500E-02 9.335E+01 9.106E+01 
1.600E-02 7.866E+01 7.653E+01 
1.700E-02 6.699E+01 6.501E+01 
1.800E-02 5.759E+01 5.573E+01 
1.900E-02 4.993E+01 4.819E+01 
2.000E-02 4.361E+01 4.198E+01 
2.100E-02 3.827E+01 3.673E+01 
2.200E-02 3.380E+01 3.234E+01 
2.300E-02 3.002E+01 2.864E+01 
2.400E-02 2.680E+01 2.550E+01 
2.500E-02 2.404E+01 2.281E+01 
2.600E-02 2.167E+01 2.049E+01 
2.700E-02 1.960E+01 1.849E+01 
2.800E-02 1.780E+01 1.674E+01 
2.900E-02 1.623E+01 1.522E+01 
3.000E-02 1.484E+01 1.388E+01 
3.100E-02 1.359E+01 1.267E+01 
3.200E-02 1.249E+01 1.161E+01 
3.300E-02 1.151E+01 1.067E+01 
3.400E-02 1.063E+01 9.827E+00 
3.500E-02 9.844E+00 9.074E+00 
3.600E-02 9.136E+00 8.398E+00 
3.700E-02 8.498E+00 7.790E+00 
3.800E-02 7.920E+00 7.240E+00 
3.900E-02 7.396E+00 6.743E+00 
4.000E-02 6.920E+00 6.292E+00 
4.100E-02 6.482E+00 5.878E+00 
4.200E-02 6.082E+00 5.501E+00 
4.300E-02 5.717E+00 5.156E+00 
4.400E-02 5.381E+00 4.841E+00 
4.500E-02 5.074E+00 4.552E+00 
4.600E-02 4.790E+00 4.286E+00 
4.700E-02 4.529E+00 4.041E+00 
4.800E-02 4.288E+00 3.816E+00 
4.900E-02 4.066E+00 3.607E+00 
5.000E-02 3.860E+00 3.415E+00 
5.100E-02 1.792E+01 1.749E+01 
5.200E-02 1.704E+01 1.662E+01 
5.300E-02 1.622E+01 1.581E+01 
5.400E-02 1.545E+01 1.505E+01 
5.500E-02 1.473E+01 1.434E+01 
5.600E-02 1.406E+01 1.368E+01 
5.700E-02 1.342E+01 1.306E+01 
5.800E-02 1.283E+01 1.248E+01 
5.900E-02 1.228E+01 1.193E+01 
6.000E-02 1.175E+01 1.142E+01 
6.100E-02 1.126E+01 1.093E+01 
6.200E-02 1.080E+01 1.048E+01 
6.300E-02 1.036E+01 1.005E+01 
6.400E-02 9.943E+00 9.642E+00 
6.500E-02 9.552E+00 9.258E+00 
6.600E-02 9.182E+00 8.895E+00 
6.700E-02 8.831E+00 8.551E+00 
6.800E-02 8.499E+00 8.226E+00 
6.900E-02 8.183E+00 7.917E+00 
7.000E-02 7.884E+00 7.623E+00 
7.100E-02 7.599E+00 7.345E+00 
7.200E-02 7.329E+00 7.080E+00 
7.300E-02 7.071E+00 6.828E+00 
7.400E-02 6.826E+00 6.588E+00 
7.500E-02 6.592E+00 6.359E+00 
7.600E-02 6.369E+00 6.142E+00 
7.700E-02 6.156E+00 5.934E+00 
7.800E-02 5.953E+00 5.735E+00 
7.900E-02 5.759E+00 5.545E+00 
8.000E-02 5.573E+00 5.364E+00 
8.100E-02 5.396E+00 5.191E+00 
8.200E-02 5.226E+00 5.025E+00 
8.300E-02 5.063E+00 4.866E+00 
8.400E-02 4.907E+00 4.714E+00 
8.500E-02 4.757E+00 4.569E+00 
8.600E-02 4.614E+00 4.429E+00 
8.700E-02 4.477E+00 4.295E+00 
8.800E-02 4.345E+00 4.167E+00 
8.900E-02 4.218E+00 4.044E+00 
9.000E-02 4.096E+00 3.925E+00 
9.100E-02 3.980E+00 3.812E+00 
9.200E-02 3.867E+00 3.703E+00 
9.300E-02 3.759E+00 3.598E+00 
9.400E-02 3.656E+00 3.497E+00 
9.500E-02 3.556E+00 3.400E+00 
9.600E-02 3.460E+00 3.307E+00 
9.700E-02 3.367E+00 3.217E+00 
9.800E-02 3.278E+00 3.131E+00 
9.900E-02 3.192E+00 3.047E+00 
1.000E-01 3.109E+00 2.967E+00 
1.010E-01 3.030E+00 2.890E+00 
1.020E-01 2.953E+00 2.815E+00 
1.030E-01 2.878E+00 2.743E+00 
1.040E-01 2.807E+00 2.674E+00 
1.050E-01 2.738E+00 2.607E+00 
1.060E-01 2.671E+00 2.542E+00 
1.070E-01 2.606E+00 2.480E+00 
1.080E-01 2.544E+00 2.420E+00 
1.090E-01 2.484E+00 2.361E+00 
1.100E-01 2.426E+00 2.305E+00 
1.110E-01 2.369E+00 2.251E+00 
1.120E-01 2.315E+00 2.198E+00 
1.130E-01 2.262E+00 2.147E+00 
1.140E-01 2.211E+00 2.098E+00 
1.150E-01 2.162E+00 2.050E+00 
1.160E-01 2.114E+00 2.004E+00 
1.170E-01 2.067E+00 1.959E+00 
1.180E-01 2.022E+00 1.916E+00 
1.190E-01 1.979E+00 1.874E+00 
1.200E-01 1.937E+00 1.833E+00 
1.210E-01 1.896E+00 1.794E+00 
1.220E-01 1.856E+00 1.756E+00 
1.230E-01 1.817E+00 1.719E+00 
1.240E-01 1.780E+00 1.683E+00 
1.250E-01 1.744E+00 1.648E+00 
1.260E-01 1.708E+00 1.614E+00 
1.270E-01 1.674E+00 1.581E+00 
1.280E-01 1.641E+00 1.549E+00 
1.290E-01 1.609E+00 1.518E+00 
1.300E-01 1.577E+00 1.488E+00 
1.310E-01 1.547E+00 1.458E+00 
1.320E-01 1.517E+00 1.430E+00 
1.330E-01 1.488E+00 1.402E+00 
1.340E-01 1.460E+00 1.375E+00 
1.350E-01 1.433E+00 1.349E+00 
1.360E-01 1.407E+00 1.324E+00 
1.370E-01 1.381E+00 1.299E+00 
1.380E-01 1.356E+00 1.275E+00 
1.390E-01 1.331E+00 1.252E+00 
1.400E-01 1.307E+00 1.229E+00 
1.410E-01 1.284E+00 1.207E+00 
1.420E-01 1.261E+00 1.185E+00 
1.430E-01 1.239E+00 1.164E+00 
1.440E-01 1.218E+00 1.143E+00 
1.450E-01 1.197E+00 1.123E+00 
1.460E-01 1.177E+00 1.104E+00 
1.470E-01 1.157E+00 1.085E+00 
1.480E-01 1.137E+00 1.066E+00 
1.490E-01 1.118E+00 1.048E+00 
1.500E-01 1.100E+00 1.031E+00 
1.510E-01 1.082E+00 1.013E+00 
1.520E-01 1.064E+00 9.967E-01 
1.530E-01 1.047E+00 9.804E-01 
1.540E-01 1.031E+00 9.644E-01 
1.550E-01 1.014E+00 9.489E-01 
1.560E-01 9.984E-01 9.337E-01 
1.570E-01 9.828E-01 9.189E-01 
1.580E-01 9.676E-01 9.044E-01 
1.590E-01 9.527E-01 8.902E-01 
1.600E-01 9.382E-01 8.764E-01 
1.610E-01 9.241E-01 8.629E-01 
1.620E-01 9.102E-01 8.498E-01 
1.630E-01 8.967E-01 8.369E-01 
1.640E-01 8.834E-01 8.243E-01 
1.650E-01 8.705E-01 8.120E-01 
1.660E-01 8.578E-01 8.000E-01 
1.670E-01 8.455E-01 7.882E-01 
1.680E-01 8.333E-01 7.767E-01 
1.690E-01 8.215E-01 7.655E-01 
1.700E-01 8.099E-01 7.545E-01 
1.710E-01 7.986E-01 7.437E-01 
1.720E-01 7.875E-01 7.332E-01 
1.730E-01 7.766E-01 7.229E-01 
1.740E-01 7.660E-01 7.129E-01 
1.750E-01 7.556E-01 7.030E-01 
1.760E-01 7.454E-01 6.934E-01 
1.770E-01 7.354E-01 6.839E-01 
1.780E-01 7.257E-01 6.747E-01 
1.790E-01 7.161E-01 6.656E-01 
1.800E-01 7.067E-01 6.567E-01 
1.810E-01 6.976E-01 6.481E-01 
1.820E-01 6.886E-01 6.396E-01 
1.830E-01 6.797E-01 6.312E-01 
1.840E-01 6.711E-01 6.231E-01 
1.850E-01 6.626E-01 6.151E-01 
1.860E-01 6.543E-01 6.072E-01 
1.870E-01 6.462E-01 5.995E-01 
1.880E-01 6.382E-01 5.920E-01 
1.890E-01 6.304E-01 5.846E-01 
1.900E-01 6.227E-01 5.774E-01 
1.910E-01 6.152E-01 5.703E-01 
1.920E-01 6.078E-01 5.633E-01 
1.930E-01 6.006E-01 5.565E-01 
1.940E-01 5.935E-01 5.498E-01 
1.950E-01 5.865E-01 5.433E-01 
1.960E-01 5.797E-01 5.368E-01 
1.970E-01 5.729E-01 5.305E-01 
1.980E-01 5.664E-01 5.243E-01 
1.990E-01 5.599E-01 5.182E-01 