Photon    Tot. w/  Tot. wo/ 
Energy    Coherent Coherent 

1.000E-03 9.096E+03 9.087E+03 
2.000E-03 1.997E+03 1.989E+03 
3.000E-03 7.420E+02 7.356E+02 
4.000E-03 3.608E+02 3.551E+02 
5.000E-03 8.430E+02 8.381E+02 
6.000E-03 6.175E+02 6.131E+02 
7.000E-03 4.134E+02 4.095E+02 
8.000E-03 2.921E+02 2.887E+02 
9.000E-03 2.144E+02 2.113E+02 
1.000E-02 1.626E+02 1.598E+02 
1.100E-02 1.260E+02 1.234E+02 
1.200E-02 9.983E+01 9.749E+01 
1.300E-02 8.064E+01 7.849E+01 
1.400E-02 6.620E+01 6.421E+01 
1.500E-02 5.511E+01 5.327E+01 
1.600E-02 4.631E+01 4.459E+01 
1.700E-02 3.933E+01 3.773E+01 
1.800E-02 3.373E+01 3.224E+01 
1.900E-02 2.918E+01 2.778E+01 
2.000E-02 2.543E+01 2.412E+01 
2.100E-02 2.228E+01 2.105E+01 
2.200E-02 1.965E+01 1.849E+01 
2.300E-02 1.743E+01 1.634E+01 
2.400E-02 1.554E+01 1.451E+01 
2.500E-02 1.393E+01 1.296E+01 
2.600E-02 1.254E+01 1.162E+01 
2.700E-02 1.133E+01 1.046E+01 
2.800E-02 1.028E+01 9.459E+00 
2.900E-02 9.367E+00 8.583E+00 
3.000E-02 8.561E+00 7.815E+00 
3.100E-02 7.843E+00 7.133E+00 
3.200E-02 7.208E+00 6.529E+00 
3.300E-02 6.642E+00 5.994E+00 
3.400E-02 3.362E+01 3.300E+01 
3.500E-02 3.120E+01 3.060E+01 
3.600E-02 2.901E+01 2.844E+01 
3.700E-02 2.703E+01 2.649E+01 
3.800E-02 2.523E+01 2.471E+01 
3.900E-02 2.359E+01 2.309E+01 
4.000E-02 2.210E+01 2.161E+01 
4.100E-02 2.073E+01 2.026E+01 
4.200E-02 1.947E+01 1.902E+01 
4.300E-02 1.831E+01 1.788E+01 
4.400E-02 1.725E+01 1.683E+01 
4.500E-02 1.626E+01 1.586E+01 
4.600E-02 1.535E+01 1.496E+01 
4.700E-02 1.451E+01 1.413E+01 
4.800E-02 1.373E+01 1.336E+01 
4.900E-02 1.300E+01 1.264E+01 
5.000E-02 1.232E+01 1.198E+01 
5.100E-02 1.169E+01 1.136E+01 
5.200E-02 1.110E+01 1.078E+01 
5.300E-02 1.056E+01 1.024E+01 
5.400E-02 1.004E+01 9.737E+00 
5.500E-02 9.563E+00 9.266E+00 
5.600E-02 9.113E+00 8.825E+00 
5.700E-02 8.692E+00 8.412E+00 
5.800E-02 8.297E+00 8.024E+00 
5.900E-02 7.926E+00 7.661E+00 
6.000E-02 7.577E+00 7.319E+00 
6.100E-02 7.249E+00 6.998E+00 
6.200E-02 6.940E+00 6.696E+00 
6.300E-02 6.649E+00 6.412E+00 
6.400E-02 6.375E+00 6.143E+00 
6.500E-02 6.116E+00 5.890E+00 
6.600E-02 5.871E+00 5.651E+00 
6.700E-02 5.639E+00 5.425E+00 
6.800E-02 5.420E+00 5.211E+00 
6.900E-02 5.212E+00 5.008E+00 
7.000E-02 5.015E+00 4.816E+00 
7.100E-02 4.829E+00 4.634E+00 
7.200E-02 4.651E+00 4.462E+00 
7.300E-02 4.483E+00 4.298E+00 
7.400E-02 4.323E+00 4.142E+00 
7.500E-02 4.170E+00 3.993E+00 
7.600E-02 4.025E+00 3.852E+00 
7.700E-02 3.887E+00 3.718E+00 
7.800E-02 3.756E+00 3.590E+00 
7.900E-02 3.630E+00 3.468E+00 
8.000E-02 3.510E+00 3.352E+00 
8.100E-02 3.396E+00 3.241E+00 
8.200E-02 3.286E+00 3.135E+00 
8.300E-02 3.182E+00 3.033E+00 
8.400E-02 3.082E+00 2.936E+00 
8.500E-02 2.986E+00 2.844E+00 
8.600E-02 2.895E+00 2.755E+00 
8.700E-02 2.807E+00 2.670E+00 
8.800E-02 2.723E+00 2.589E+00 
8.900E-02 2.643E+00 2.511E+00 
9.000E-02 2.565E+00 2.436E+00 
9.100E-02 2.491E+00 2.365E+00 
9.200E-02 2.420E+00 2.296E+00 
9.300E-02 2.352E+00 2.230E+00 
9.400E-02 2.286E+00 2.167E+00 
9.500E-02 2.223E+00 2.106E+00 
9.600E-02 2.163E+00 2.047E+00 
9.700E-02 2.104E+00 1.991E+00 
9.800E-02 2.048E+00 1.937E+00 
9.900E-02 1.994E+00 1.885E+00 
1.000E-01 1.942E+00 1.835E+00 
1.010E-01 1.892E+00 1.787E+00 
1.020E-01 1.844E+00 1.740E+00 
1.030E-01 1.798E+00 1.696E+00 
1.040E-01 1.753E+00 1.653E+00 
1.050E-01 1.709E+00 1.611E+00 
1.060E-01 1.668E+00 1.571E+00 
1.070E-01 1.627E+00 1.532E+00 
1.080E-01 1.589E+00 1.495E+00 
1.090E-01 1.551E+00 1.459E+00 
1.100E-01 1.515E+00 1.424E+00 
1.110E-01 1.480E+00 1.390E+00 
1.120E-01 1.446E+00 1.358E+00 
1.130E-01 1.413E+00 1.327E+00 
1.140E-01 1.381E+00 1.296E+00 
1.150E-01 1.351E+00 1.267E+00 
1.160E-01 1.321E+00 1.238E+00 
1.170E-01 1.292E+00 1.211E+00 
1.180E-01 1.265E+00 1.184E+00 
1.190E-01 1.238E+00 1.159E+00 
1.200E-01 1.211E+00 1.134E+00 
1.210E-01 1.186E+00 1.109E+00 
1.220E-01 1.162E+00 1.086E+00 
1.230E-01 1.138E+00 1.063E+00 
1.240E-01 1.115E+00 1.041E+00 
1.250E-01 1.092E+00 1.020E+00 
1.260E-01 1.071E+00 9.994E-01 
1.270E-01 1.050E+00 9.793E-01 
1.280E-01 1.029E+00 9.598E-01 
1.290E-01 1.009E+00 9.409E-01 
1.300E-01 9.900E-01 9.225E-01 
1.310E-01 9.713E-01 9.047E-01 
1.320E-01 9.530E-01 8.874E-01 
1.330E-01 9.353E-01 8.706E-01 
1.340E-01 9.181E-01 8.542E-01 
1.350E-01 9.014E-01 8.383E-01 
1.360E-01 8.851E-01 8.229E-01 
1.370E-01 8.693E-01 8.079E-01 
1.380E-01 8.539E-01 7.933E-01 
1.390E-01 8.389E-01 7.791E-01 
1.400E-01 8.243E-01 7.652E-01 
1.410E-01 8.101E-01 7.518E-01 
1.420E-01 7.963E-01 7.387E-01 
1.430E-01 7.828E-01 7.260E-01 
1.440E-01 7.697E-01 7.136E-01 
1.450E-01 7.570E-01 7.015E-01 
1.460E-01 7.445E-01 6.897E-01 
1.470E-01 7.324E-01 6.782E-01 
1.480E-01 7.205E-01 6.671E-01 
1.490E-01 7.090E-01 6.562E-01 
1.500E-01 6.978E-01 6.456E-01 
1.510E-01 6.868E-01 6.352E-01 
1.520E-01 6.761E-01 6.251E-01 
1.530E-01 6.657E-01 6.153E-01 
1.540E-01 6.555E-01 6.057E-01 
1.550E-01 6.455E-01 5.963E-01 
1.560E-01 6.358E-01 5.872E-01 
1.570E-01 6.264E-01 5.783E-01 
1.580E-01 6.171E-01 5.696E-01 
1.590E-01 6.081E-01 5.611E-01 
1.600E-01 5.993E-01 5.528E-01 
1.610E-01 5.907E-01 5.447E-01 
1.620E-01 5.822E-01 5.368E-01 
1.630E-01 5.740E-01 5.291E-01 
1.640E-01 5.660E-01 5.216E-01 
1.650E-01 5.581E-01 5.142E-01 
1.660E-01 5.504E-01 5.070E-01 
1.670E-01 5.429E-01 4.999E-01 
1.680E-01 5.356E-01 4.931E-01 
1.690E-01 5.284E-01 4.863E-01 
1.700E-01 5.214E-01 4.798E-01 
1.710E-01 5.145E-01 4.733E-01 
1.720E-01 5.078E-01 4.670E-01 
1.730E-01 5.012E-01 4.609E-01 
1.740E-01 4.948E-01 4.549E-01 
1.750E-01 4.884E-01 4.490E-01 
1.760E-01 4.823E-01 4.432E-01 
1.770E-01 4.762E-01 4.376E-01 
1.780E-01 4.703E-01 4.321E-01 
1.790E-01 4.645E-01 4.267E-01 
1.800E-01 4.589E-01 4.214E-01 
1.810E-01 4.533E-01 4.162E-01 
1.820E-01 4.479E-01 4.111E-01 
1.830E-01 4.425E-01 4.062E-01 
1.840E-01 4.373E-01 4.013E-01 
1.850E-01 4.322E-01 3.965E-01 
1.860E-01 4.272E-01 3.919E-01 
1.870E-01 4.222E-01 3.873E-01 
1.880E-01 4.174E-01 3.828E-01 
1.890E-01 4.127E-01 3.784E-01 
1.900E-01 4.081E-01 3.741E-01 
1.910E-01 4.035E-01 3.699E-01 
1.920E-01 3.990E-01 3.658E-01 
1.930E-01 3.947E-01 3.617E-01 
1.940E-01 3.904E-01 3.577E-01 
1.950E-01 3.862E-01 3.538E-01 
1.960E-01 3.820E-01 3.500E-01 
1.970E-01 3.780E-01 3.462E-01 
1.980E-01 3.740E-01 3.426E-01 
1.990E-01 3.701E-01 3.390E-01 