Photon    Tot. w/  Tot. wo/ 
Energy    Coherent Coherent 

1.000E-03 5.209E+03 5.197E+03 
2.000E-03 1.285E+03 1.274E+03 
3.000E-03 1.965E+03 1.955E+03 
4.000E-03 1.251E+03 1.242E+03 
5.000E-03 7.305E+02 7.223E+02 
6.000E-03 4.672E+02 4.598E+02 
7.000E-03 3.184E+02 3.118E+02 
8.000E-03 2.287E+02 2.227E+02 
9.000E-03 1.701E+02 1.646E+02 
1.000E-02 1.306E+02 1.257E+02 
1.100E-02 1.027E+02 9.811E+01 
1.200E-02 8.247E+01 7.828E+01 
1.300E-02 6.746E+01 6.360E+01 
1.400E-02 1.340E+02 1.305E+02 
1.500E-02 1.116E+02 1.083E+02 
1.600E-02 1.515E+02 1.484E+02 
1.700E-02 1.300E+02 1.271E+02 
1.800E-02 1.126E+02 1.099E+02 
1.900E-02 9.826E+01 9.577E+01 
2.000E-02 8.637E+01 8.404E+01 
2.100E-02 7.611E+01 7.391E+01 
2.200E-02 6.747E+01 6.540E+01 
2.300E-02 6.014E+01 5.818E+01 
2.400E-02 5.387E+01 5.202E+01 
2.500E-02 4.848E+01 4.672E+01 
2.600E-02 4.381E+01 4.215E+01 
2.700E-02 3.975E+01 3.817E+01 
2.800E-02 3.620E+01 3.469E+01 
2.900E-02 3.308E+01 3.163E+01 
3.000E-02 3.032E+01 2.894E+01 
3.100E-02 2.783E+01 2.651E+01 
3.200E-02 2.562E+01 2.436E+01 
3.300E-02 2.365E+01 2.244E+01 
3.400E-02 2.188E+01 2.072E+01 
3.500E-02 2.029E+01 1.918E+01 
3.600E-02 1.886E+01 1.779E+01 
3.700E-02 1.757E+01 1.654E+01 
3.800E-02 1.640E+01 1.541E+01 
3.900E-02 1.533E+01 1.438E+01 
4.000E-02 1.436E+01 1.344E+01 
4.100E-02 1.346E+01 1.258E+01 
4.200E-02 1.264E+01 1.179E+01 
4.300E-02 1.189E+01 1.107E+01 
4.400E-02 1.120E+01 1.040E+01 
4.500E-02 1.057E+01 9.795E+00 
4.600E-02 9.979E+00 9.234E+00 
4.700E-02 9.438E+00 8.717E+00 
4.800E-02 8.937E+00 8.239E+00 
4.900E-02 8.473E+00 7.797E+00 
5.000E-02 8.042E+00 7.387E+00 
5.100E-02 7.638E+00 7.003E+00 
5.200E-02 7.262E+00 6.647E+00 
5.300E-02 6.912E+00 6.315E+00 
5.400E-02 6.586E+00 6.006E+00 
5.500E-02 6.280E+00 5.717E+00 
5.600E-02 5.995E+00 5.448E+00 
5.700E-02 5.727E+00 5.195E+00 
5.800E-02 5.477E+00 4.959E+00 
5.900E-02 5.241E+00 4.738E+00 
6.000E-02 5.020E+00 4.530E+00 
6.100E-02 4.810E+00 4.333E+00 
6.200E-02 4.613E+00 4.149E+00 
6.300E-02 4.428E+00 3.975E+00 
6.400E-02 4.253E+00 3.811E+00 
6.500E-02 4.087E+00 3.656E+00 
6.600E-02 3.931E+00 3.510E+00 
6.700E-02 3.783E+00 3.373E+00 
6.800E-02 3.643E+00 3.242E+00 
6.900E-02 3.510E+00 3.119E+00 
7.000E-02 3.384E+00 3.002E+00 
7.100E-02 3.265E+00 2.891E+00 
7.200E-02 3.151E+00 2.786E+00 
7.300E-02 3.044E+00 2.686E+00 
7.400E-02 2.941E+00 2.592E+00 
7.500E-02 2.843E+00 2.501E+00 
7.600E-02 2.750E+00 2.416E+00 
7.700E-02 2.662E+00 2.334E+00 
7.800E-02 2.577E+00 2.256E+00 
7.900E-02 2.496E+00 2.182E+00 
8.000E-02 2.419E+00 2.112E+00 
8.100E-02 2.346E+00 2.044E+00 
8.200E-02 2.275E+00 1.979E+00 
8.300E-02 2.207E+00 1.918E+00 
8.400E-02 2.143E+00 1.859E+00 
8.500E-02 2.081E+00 1.802E+00 
8.600E-02 2.021E+00 1.748E+00 
8.700E-02 1.965E+00 1.696E+00 
8.800E-02 1.910E+00 1.647E+00 
8.900E-02 7.466E+00 7.208E+00 
9.000E-02 7.256E+00 7.002E+00 
9.100E-02 7.054E+00 6.805E+00 
9.200E-02 6.860E+00 6.615E+00 
9.300E-02 6.673E+00 6.433E+00 
9.400E-02 6.494E+00 6.258E+00 
9.500E-02 6.321E+00 6.089E+00 
9.600E-02 6.155E+00 5.927E+00 
9.700E-02 5.995E+00 5.771E+00 
9.800E-02 5.841E+00 5.621E+00 
9.900E-02 5.692E+00 5.476E+00 
1.000E-01 5.549E+00 5.336E+00 
1.010E-01 5.411E+00 5.202E+00 
1.020E-01 5.278E+00 5.072E+00 
1.030E-01 5.149E+00 4.947E+00 
1.040E-01 5.025E+00 4.826E+00 
1.050E-01 4.905E+00 4.709E+00 
1.060E-01 4.789E+00 4.596E+00 
1.070E-01 4.677E+00 4.487E+00 
1.080E-01 4.569E+00 4.382E+00 
1.090E-01 4.464E+00 4.280E+00 
1.100E-01 4.363E+00 4.182E+00 
1.110E-01 4.265E+00 4.087E+00 
1.120E-01 4.170E+00 3.994E+00 
1.130E-01 4.078E+00 3.905E+00 
1.140E-01 3.989E+00 3.818E+00 
1.150E-01 3.902E+00 3.735E+00 
1.160E-01 3.818E+00 3.653E+00 
1.170E-01 3.737E+00 3.575E+00 
1.180E-01 3.659E+00 3.498E+00 
1.190E-01 3.582E+00 3.424E+00 
1.200E-01 3.508E+00 3.352E+00 
1.210E-01 3.436E+00 3.283E+00 
1.220E-01 3.366E+00 3.215E+00 
1.230E-01 3.298E+00 3.149E+00 
1.240E-01 3.232E+00 3.085E+00 
1.250E-01 3.168E+00 3.023E+00 
1.260E-01 3.106E+00 2.963E+00 
1.270E-01 3.045E+00 2.904E+00 
1.280E-01 2.986E+00 2.847E+00 
1.290E-01 2.929E+00 2.792E+00 
1.300E-01 2.873E+00 2.738E+00 
1.310E-01 2.819E+00 2.686E+00 
1.320E-01 2.766E+00 2.635E+00 
1.330E-01 2.715E+00 2.585E+00 
1.340E-01 2.665E+00 2.536E+00 
1.350E-01 2.616E+00 2.489E+00 
1.360E-01 2.568E+00 2.444E+00 
1.370E-01 2.522E+00 2.399E+00 
1.380E-01 2.477E+00 2.355E+00 
1.390E-01 2.433E+00 2.313E+00 
1.400E-01 2.390E+00 2.271E+00 
1.410E-01 2.348E+00 2.231E+00 
1.420E-01 2.307E+00 2.192E+00 
1.430E-01 2.268E+00 2.153E+00 
1.440E-01 2.229E+00 2.116E+00 
1.450E-01 2.191E+00 2.079E+00 
1.460E-01 2.154E+00 2.044E+00 
1.470E-01 2.118E+00 2.009E+00 
1.480E-01 2.083E+00 1.975E+00 
1.490E-01 2.048E+00 1.942E+00 
1.500E-01 2.015E+00 1.910E+00 
1.510E-01 1.982E+00 1.878E+00 
1.520E-01 1.950E+00 1.847E+00 
1.530E-01 1.918E+00 1.817E+00 
1.540E-01 1.888E+00 1.787E+00 
1.550E-01 1.858E+00 1.759E+00 
1.560E-01 1.828E+00 1.731E+00 
1.570E-01 1.800E+00 1.703E+00 
1.580E-01 1.772E+00 1.676E+00 
1.590E-01 1.744E+00 1.650E+00 
1.600E-01 1.718E+00 1.624E+00 
1.610E-01 1.691E+00 1.599E+00 
1.620E-01 1.666E+00 1.574E+00 
1.630E-01 1.641E+00 1.550E+00 
1.640E-01 1.616E+00 1.527E+00 
1.650E-01 1.592E+00 1.504E+00 
1.660E-01 1.569E+00 1.481E+00 
1.670E-01 1.546E+00 1.459E+00 
1.680E-01 1.523E+00 1.438E+00 
1.690E-01 1.501E+00 1.417E+00 
1.700E-01 1.480E+00 1.396E+00 
1.710E-01 1.459E+00 1.376E+00 
1.720E-01 1.438E+00 1.356E+00 
1.730E-01 1.418E+00 1.336E+00 
1.740E-01 1.398E+00 1.317E+00 
1.750E-01 1.378E+00 1.299E+00 
1.760E-01 1.359E+00 1.281E+00 
1.770E-01 1.341E+00 1.263E+00 
1.780E-01 1.322E+00 1.245E+00 
1.790E-01 1.305E+00 1.228E+00 
1.800E-01 1.287E+00 1.211E+00 
1.810E-01 1.270E+00 1.195E+00 
1.820E-01 1.253E+00 1.179E+00 
1.830E-01 1.236E+00 1.163E+00 
1.840E-01 1.220E+00 1.147E+00 
1.850E-01 1.204E+00 1.132E+00 
1.860E-01 1.189E+00 1.117E+00 
1.870E-01 1.173E+00 1.103E+00 
1.880E-01 1.158E+00 1.088E+00 
1.890E-01 1.144E+00 1.074E+00 
1.900E-01 1.129E+00 1.060E+00 
1.910E-01 1.115E+00 1.047E+00 
1.920E-01 1.101E+00 1.034E+00 
1.930E-01 1.087E+00 1.021E+00 
1.940E-01 1.074E+00 1.008E+00 
1.950E-01 1.061E+00 9.953E-01 
1.960E-01 1.048E+00 9.830E-01 
1.970E-01 1.035E+00 9.709E-01 
1.980E-01 1.023E+00 9.591E-01 
1.990E-01 1.011E+00 9.474E-01 