Photon    Tot. w/  Tot. wo/ 
Energy    Coherent Coherent 

1.000E-03 3.509E+03 3.498E+03 
2.000E-03 3.771E+03 3.761E+03 
3.000E-03 1.838E+03 1.829E+03 
4.000E-03 9.222E+02 9.139E+02 
5.000E-03 5.329E+02 5.255E+02 
6.000E-03 3.382E+02 3.316E+02 
7.000E-03 2.292E+02 2.233E+02 
8.000E-03 1.639E+02 1.586E+02 
9.000E-03 1.216E+02 1.167E+02 
1.000E-02 2.379E+02 2.335E+02 
1.100E-02 1.849E+02 1.810E+02 
1.200E-02 2.352E+02 2.316E+02 
1.300E-02 1.922E+02 1.889E+02 
1.400E-02 1.594E+02 1.564E+02 
1.500E-02 1.340E+02 1.312E+02 
1.600E-02 1.132E+02 1.106E+02 
1.700E-02 9.668E+01 9.424E+01 
1.800E-02 8.331E+01 8.103E+01 
1.900E-02 7.237E+01 7.024E+01 
2.000E-02 6.334E+01 6.134E+01 
2.100E-02 5.570E+01 5.381E+01 
2.200E-02 4.927E+01 4.750E+01 
2.300E-02 4.384E+01 4.216E+01 
2.400E-02 3.920E+01 3.761E+01 
2.500E-02 3.522E+01 3.372E+01 
2.600E-02 3.178E+01 3.035E+01 
2.700E-02 2.880E+01 2.743E+01 
2.800E-02 2.619E+01 2.489E+01 
2.900E-02 2.389E+01 2.266E+01 
3.000E-02 2.187E+01 2.069E+01 
3.100E-02 2.005E+01 1.893E+01 
3.200E-02 1.844E+01 1.736E+01 
3.300E-02 1.700E+01 1.597E+01 
3.400E-02 1.571E+01 1.472E+01 
3.500E-02 1.456E+01 1.361E+01 
3.600E-02 1.352E+01 1.261E+01 
3.700E-02 1.258E+01 1.170E+01 
3.800E-02 1.173E+01 1.089E+01 
3.900E-02 1.096E+01 1.015E+01 
4.000E-02 1.025E+01 9.477E+00 
4.100E-02 9.609E+00 8.859E+00 
4.200E-02 9.018E+00 8.296E+00 
4.300E-02 8.478E+00 7.781E+00 
4.400E-02 7.981E+00 7.309E+00 
4.500E-02 7.525E+00 6.876E+00 
4.600E-02 7.105E+00 6.478E+00 
4.700E-02 6.717E+00 6.110E+00 
4.800E-02 6.358E+00 5.772E+00 
4.900E-02 6.026E+00 5.458E+00 
5.000E-02 5.718E+00 5.168E+00 
5.100E-02 5.430E+00 4.897E+00 
5.200E-02 5.163E+00 4.645E+00 
5.300E-02 4.913E+00 4.411E+00 
5.400E-02 4.681E+00 4.194E+00 
5.500E-02 4.464E+00 3.990E+00 
5.600E-02 4.261E+00 3.801E+00 
5.700E-02 4.071E+00 3.624E+00 
5.800E-02 3.893E+00 3.458E+00 
5.900E-02 3.726E+00 3.302E+00 
6.000E-02 3.569E+00 3.156E+00 
6.100E-02 3.421E+00 3.019E+00 
6.200E-02 3.281E+00 2.890E+00 
6.300E-02 3.150E+00 2.769E+00 
6.400E-02 3.026E+00 2.654E+00 
6.500E-02 2.909E+00 2.546E+00 
6.600E-02 2.798E+00 2.445E+00 
6.700E-02 2.694E+00 2.349E+00 
6.800E-02 1.154E+01 1.120E+01 
6.900E-02 1.111E+01 1.078E+01 
7.000E-02 1.070E+01 1.038E+01 
7.100E-02 1.032E+01 1.000E+01 
7.200E-02 9.951E+00 9.644E+00 
7.300E-02 9.602E+00 9.302E+00 
7.400E-02 9.271E+00 8.977E+00 
7.500E-02 8.956E+00 8.668E+00 
7.600E-02 8.655E+00 8.374E+00 
7.700E-02 8.369E+00 8.093E+00 
7.800E-02 8.096E+00 7.826E+00 
7.900E-02 7.836E+00 7.571E+00 
8.000E-02 7.587E+00 7.328E+00 
8.100E-02 7.350E+00 7.096E+00 
8.200E-02 7.123E+00 6.875E+00 
8.300E-02 6.906E+00 6.663E+00 
8.400E-02 6.699E+00 6.460E+00 
8.500E-02 6.500E+00 6.266E+00 
8.600E-02 6.309E+00 6.080E+00 
8.700E-02 6.126E+00 5.901E+00 
8.800E-02 5.951E+00 5.730E+00 
8.900E-02 5.783E+00 5.566E+00 
9.000E-02 5.621E+00 5.408E+00 
9.100E-02 5.465E+00 5.257E+00 
9.200E-02 5.316E+00 5.111E+00 
9.300E-02 5.172E+00 4.971E+00 
9.400E-02 5.033E+00 4.836E+00 
9.500E-02 4.900E+00 4.706E+00 
9.600E-02 4.771E+00 4.581E+00 
9.700E-02 4.647E+00 4.460E+00 
9.800E-02 4.527E+00 4.344E+00 
9.900E-02 4.412E+00 4.231E+00 
1.000E-01 4.300E+00 4.123E+00 
1.010E-01 4.193E+00 4.018E+00 
1.020E-01 4.089E+00 3.917E+00 
1.030E-01 3.988E+00 3.819E+00 
1.040E-01 3.891E+00 3.725E+00 
1.050E-01 3.797E+00 3.634E+00 
1.060E-01 3.706E+00 3.546E+00 
1.070E-01 3.618E+00 3.460E+00 
1.080E-01 3.533E+00 3.378E+00 
1.090E-01 3.451E+00 3.298E+00 
1.100E-01 3.371E+00 3.221E+00 
1.110E-01 3.294E+00 3.146E+00 
1.120E-01 3.219E+00 3.073E+00 
1.130E-01 3.147E+00 3.003E+00 
1.140E-01 3.076E+00 2.935E+00 
1.150E-01 3.008E+00 2.869E+00 
1.160E-01 2.942E+00 2.805E+00 
1.170E-01 2.879E+00 2.743E+00 
1.180E-01 2.816E+00 2.683E+00 
1.190E-01 2.756E+00 2.625E+00 
1.200E-01 2.698E+00 2.569E+00 
1.210E-01 2.641E+00 2.514E+00 
1.220E-01 2.586E+00 2.461E+00 
1.230E-01 2.533E+00 2.409E+00 
1.240E-01 2.481E+00 2.359E+00 
1.250E-01 2.430E+00 2.310E+00 
1.260E-01 2.381E+00 2.263E+00 
1.270E-01 2.334E+00 2.217E+00 
1.280E-01 2.288E+00 2.172E+00 
1.290E-01 2.243E+00 2.129E+00 
1.300E-01 2.199E+00 2.087E+00 
1.310E-01 2.156E+00 2.046E+00 
1.320E-01 2.115E+00 2.006E+00 
1.330E-01 2.075E+00 1.967E+00 
1.340E-01 2.036E+00 1.929E+00 
1.350E-01 1.997E+00 1.893E+00 
1.360E-01 1.960E+00 1.857E+00 
1.370E-01 1.924E+00 1.822E+00 
1.380E-01 1.889E+00 1.788E+00 
1.390E-01 1.855E+00 1.755E+00 
1.400E-01 1.821E+00 1.723E+00 
1.410E-01 1.789E+00 1.692E+00 
1.420E-01 1.757E+00 1.661E+00 
1.430E-01 1.726E+00 1.632E+00 
1.440E-01 1.696E+00 1.603E+00 
1.450E-01 1.667E+00 1.575E+00 
1.460E-01 1.638E+00 1.547E+00 
1.470E-01 1.610E+00 1.520E+00 
1.480E-01 1.583E+00 1.494E+00 
1.490E-01 1.557E+00 1.469E+00 
1.500E-01 1.531E+00 1.444E+00 
1.510E-01 1.506E+00 1.420E+00 
1.520E-01 1.481E+00 1.396E+00 
1.530E-01 1.457E+00 1.373E+00 
1.540E-01 1.433E+00 1.350E+00 
1.550E-01 1.410E+00 1.328E+00 
1.560E-01 1.388E+00 1.307E+00 
1.570E-01 1.366E+00 1.286E+00 
1.580E-01 1.345E+00 1.265E+00 
1.590E-01 1.324E+00 1.245E+00 
1.600E-01 1.303E+00 1.226E+00 
1.610E-01 1.283E+00 1.207E+00 
1.620E-01 1.264E+00 1.188E+00 
1.630E-01 1.245E+00 1.170E+00 
1.640E-01 1.226E+00 1.152E+00 
1.650E-01 1.208E+00 1.135E+00 
1.660E-01 1.190E+00 1.118E+00 
1.670E-01 1.173E+00 1.101E+00 
1.680E-01 1.156E+00 1.085E+00 
1.690E-01 1.139E+00 1.069E+00 
1.700E-01 1.122E+00 1.053E+00 
1.710E-01 1.107E+00 1.038E+00 
1.720E-01 1.091E+00 1.023E+00 
1.730E-01 1.076E+00 1.008E+00 
1.740E-01 1.061E+00 9.940E-01 
1.750E-01 1.046E+00 9.800E-01 
1.760E-01 1.031E+00 9.663E-01 
1.770E-01 1.017E+00 9.528E-01 
1.780E-01 1.004E+00 9.397E-01 
1.790E-01 9.900E-01 9.268E-01 
1.800E-01 9.768E-01 9.142E-01 
1.810E-01 9.638E-01 9.018E-01 
1.820E-01 9.511E-01 8.897E-01 
1.830E-01 9.386E-01 8.779E-01 
1.840E-01 9.264E-01 8.662E-01 
1.850E-01 9.144E-01 8.548E-01 
1.860E-01 9.027E-01 8.437E-01 
1.870E-01 8.912E-01 8.327E-01 
1.880E-01 8.799E-01 8.220E-01 
1.890E-01 8.688E-01 8.115E-01 
1.900E-01 8.579E-01 8.012E-01 
1.910E-01 8.473E-01 7.910E-01 
1.920E-01 8.368E-01 7.811E-01 
1.930E-01 8.266E-01 7.714E-01 
1.940E-01 8.165E-01 7.618E-01 
1.950E-01 8.066E-01 7.525E-01 
1.960E-01 7.969E-01 7.433E-01 
1.970E-01 7.874E-01 7.342E-01 
1.980E-01 7.781E-01 7.254E-01 
1.990E-01 7.689E-01 7.167E-01 