Photon    Tot. w/  Tot. wo/ 
Energy    Coherent Coherent 

1.000E-03 3.683E+03 3.672E+03 
2.000E-03 3.921E+03 3.911E+03 
3.000E-03 1.902E+03 1.893E+03 
4.000E-03 9.563E+02 9.480E+02 
5.000E-03 5.532E+02 5.457E+02 
6.000E-03 3.513E+02 3.446E+02 
7.000E-03 2.383E+02 2.323E+02 
8.000E-03 1.705E+02 1.651E+02 
9.000E-03 1.265E+02 1.216E+02 
1.000E-02 9.690E+01 9.245E+01 
1.100E-02 1.917E+02 1.876E+02 
1.200E-02 2.107E+02 2.070E+02 
1.300E-02 1.989E+02 1.955E+02 
1.400E-02 1.651E+02 1.620E+02 
1.500E-02 1.389E+02 1.360E+02 
1.600E-02 1.174E+02 1.147E+02 
1.700E-02 1.002E+02 9.776E+01 
1.800E-02 8.639E+01 8.408E+01 
1.900E-02 7.507E+01 7.291E+01 
2.000E-02 6.572E+01 6.368E+01 
2.100E-02 5.780E+01 5.588E+01 
2.200E-02 5.114E+01 4.934E+01 
2.300E-02 4.551E+01 4.380E+01 
2.400E-02 4.070E+01 3.909E+01 
2.500E-02 3.658E+01 3.504E+01 
2.600E-02 3.301E+01 3.155E+01 
2.700E-02 2.991E+01 2.852E+01 
2.800E-02 2.720E+01 2.588E+01 
2.900E-02 2.483E+01 2.356E+01 
3.000E-02 2.273E+01 2.153E+01 
3.100E-02 2.084E+01 1.969E+01 
3.200E-02 1.917E+01 1.807E+01 
3.300E-02 1.767E+01 1.662E+01 
3.400E-02 1.634E+01 1.533E+01 
3.500E-02 1.514E+01 1.417E+01 
3.600E-02 1.406E+01 1.313E+01 
3.700E-02 1.308E+01 1.219E+01 
3.800E-02 1.220E+01 1.134E+01 
3.900E-02 1.140E+01 1.057E+01 
4.000E-02 1.067E+01 9.875E+00 
4.100E-02 9.997E+00 9.233E+00 
4.200E-02 9.383E+00 8.646E+00 
4.300E-02 8.821E+00 8.110E+00 
4.400E-02 8.305E+00 7.619E+00 
4.500E-02 7.830E+00 7.168E+00 
4.600E-02 7.393E+00 6.753E+00 
4.700E-02 6.989E+00 6.371E+00 
4.800E-02 6.616E+00 6.018E+00 
4.900E-02 6.271E+00 5.691E+00 
5.000E-02 5.950E+00 5.389E+00 
5.100E-02 5.651E+00 5.106E+00 
5.200E-02 5.372E+00 4.844E+00 
5.300E-02 5.113E+00 4.600E+00 
5.400E-02 4.871E+00 4.373E+00 
5.500E-02 4.645E+00 4.162E+00 
5.600E-02 4.433E+00 3.964E+00 
5.700E-02 4.236E+00 3.779E+00 
5.800E-02 4.050E+00 3.606E+00 
5.900E-02 3.876E+00 3.444E+00 
6.000E-02 3.713E+00 3.292E+00 
6.100E-02 3.558E+00 3.149E+00 
6.200E-02 3.413E+00 3.014E+00 
6.300E-02 3.276E+00 2.887E+00 
6.400E-02 3.147E+00 2.768E+00 
6.500E-02 3.025E+00 2.656E+00 
6.600E-02 2.910E+00 2.549E+00 
6.700E-02 2.801E+00 2.449E+00 
6.800E-02 2.698E+00 2.355E+00 
6.900E-02 2.601E+00 2.265E+00 
7.000E-02 1.104E+01 1.071E+01 
7.100E-02 1.064E+01 1.031E+01 
7.200E-02 1.025E+01 9.941E+00 
7.300E-02 9.893E+00 9.587E+00 
7.400E-02 9.550E+00 9.250E+00 
7.500E-02 9.223E+00 8.929E+00 
7.600E-02 8.912E+00 8.625E+00 
7.700E-02 8.616E+00 8.335E+00 
7.800E-02 8.334E+00 8.058E+00 
7.900E-02 8.065E+00 7.795E+00 
8.000E-02 7.809E+00 7.545E+00 
8.100E-02 7.564E+00 7.306E+00 
8.200E-02 7.331E+00 7.077E+00 
8.300E-02 7.108E+00 6.860E+00 
8.400E-02 6.895E+00 6.651E+00 
8.500E-02 6.691E+00 6.452E+00 
8.600E-02 6.495E+00 6.261E+00 
8.700E-02 6.308E+00 6.078E+00 
8.800E-02 6.128E+00 5.903E+00 
8.900E-02 5.956E+00 5.734E+00 
9.000E-02 5.790E+00 5.573E+00 
9.100E-02 5.631E+00 5.418E+00 
9.200E-02 5.478E+00 5.268E+00 
9.300E-02 5.330E+00 5.125E+00 
9.400E-02 5.188E+00 4.986E+00 
9.500E-02 5.051E+00 4.853E+00 
9.600E-02 4.920E+00 4.725E+00 
9.700E-02 4.792E+00 4.601E+00 
9.800E-02 4.670E+00 4.482E+00 
9.900E-02 4.551E+00 4.367E+00 
1.000E-01 4.437E+00 4.255E+00 
1.010E-01 4.326E+00 4.148E+00 
1.020E-01 4.220E+00 4.044E+00 
1.030E-01 4.116E+00 3.944E+00 
1.040E-01 4.016E+00 3.847E+00 
1.050E-01 3.920E+00 3.753E+00 
1.060E-01 3.826E+00 3.662E+00 
1.070E-01 3.736E+00 3.574E+00 
1.080E-01 3.648E+00 3.489E+00 
1.090E-01 3.563E+00 3.407E+00 
1.100E-01 3.481E+00 3.327E+00 
1.110E-01 3.402E+00 3.250E+00 
1.120E-01 3.325E+00 3.176E+00 
1.130E-01 3.250E+00 3.103E+00 
1.140E-01 3.178E+00 3.033E+00 
1.150E-01 3.108E+00 2.965E+00 
1.160E-01 3.039E+00 2.899E+00 
1.170E-01 2.973E+00 2.835E+00 
1.180E-01 2.909E+00 2.773E+00 
1.190E-01 2.847E+00 2.713E+00 
1.200E-01 2.787E+00 2.655E+00 
1.210E-01 2.729E+00 2.598E+00 
1.220E-01 2.672E+00 2.543E+00 
1.230E-01 2.617E+00 2.490E+00 
1.240E-01 2.563E+00 2.438E+00 
1.250E-01 2.511E+00 2.388E+00 
1.260E-01 2.460E+00 2.339E+00 
1.270E-01 2.411E+00 2.292E+00 
1.280E-01 2.363E+00 2.246E+00 
1.290E-01 2.317E+00 2.201E+00 
1.300E-01 2.272E+00 2.157E+00 
1.310E-01 2.228E+00 2.115E+00 
1.320E-01 2.185E+00 2.073E+00 
1.330E-01 2.143E+00 2.033E+00 
1.340E-01 2.103E+00 1.994E+00 
1.350E-01 2.064E+00 1.956E+00 
1.360E-01 2.025E+00 1.919E+00 
1.370E-01 1.988E+00 1.883E+00 
1.380E-01 1.952E+00 1.848E+00 
1.390E-01 1.916E+00 1.814E+00 
1.400E-01 1.882E+00 1.781E+00 
1.410E-01 1.848E+00 1.749E+00 
1.420E-01 1.815E+00 1.717E+00 
1.430E-01 1.783E+00 1.687E+00 
1.440E-01 1.752E+00 1.657E+00 
1.450E-01 1.722E+00 1.628E+00 
1.460E-01 1.692E+00 1.599E+00 
1.470E-01 1.664E+00 1.572E+00 
1.480E-01 1.635E+00 1.544E+00 
1.490E-01 1.608E+00 1.518E+00 
1.500E-01 1.581E+00 1.492E+00 
1.510E-01 1.555E+00 1.467E+00 
1.520E-01 1.530E+00 1.443E+00 
1.530E-01 1.505E+00 1.419E+00 
1.540E-01 1.480E+00 1.396E+00 
1.550E-01 1.457E+00 1.373E+00 
1.560E-01 1.434E+00 1.351E+00 
1.570E-01 1.411E+00 1.329E+00 
1.580E-01 1.389E+00 1.308E+00 
1.590E-01 1.367E+00 1.287E+00 
1.600E-01 1.346E+00 1.267E+00 
1.610E-01 1.326E+00 1.247E+00 
1.620E-01 1.305E+00 1.228E+00 
1.630E-01 1.286E+00 1.209E+00 
1.640E-01 1.266E+00 1.191E+00 
1.650E-01 1.248E+00 1.173E+00 
1.660E-01 1.229E+00 1.155E+00 
1.670E-01 1.211E+00 1.138E+00 
1.680E-01 1.193E+00 1.121E+00 
1.690E-01 1.176E+00 1.104E+00 
1.700E-01 1.159E+00 1.088E+00 
1.710E-01 1.143E+00 1.073E+00 
1.720E-01 1.127E+00 1.057E+00 
1.730E-01 1.111E+00 1.042E+00 
1.740E-01 1.095E+00 1.027E+00 
1.750E-01 1.080E+00 1.013E+00 
1.760E-01 1.065E+00 9.986E-01 
1.770E-01 1.051E+00 9.847E-01 
1.780E-01 1.036E+00 9.711E-01 
1.790E-01 1.022E+00 9.578E-01 
1.800E-01 1.009E+00 9.447E-01 
1.810E-01 9.953E-01 9.319E-01 
1.820E-01 9.822E-01 9.194E-01 
1.830E-01 9.693E-01 9.072E-01 
1.840E-01 9.566E-01 8.951E-01 
1.850E-01 9.443E-01 8.833E-01 
1.860E-01 9.321E-01 8.718E-01 
1.870E-01 9.202E-01 8.605E-01 
1.880E-01 9.085E-01 8.494E-01 
1.890E-01 8.971E-01 8.385E-01 
1.900E-01 8.859E-01 8.278E-01 
1.910E-01 8.748E-01 8.173E-01 
1.920E-01 8.640E-01 8.071E-01 
1.930E-01 8.534E-01 7.970E-01 
1.940E-01 8.430E-01 7.871E-01 
1.950E-01 8.328E-01 7.774E-01 
1.960E-01 8.228E-01 7.679E-01 
1.970E-01 8.129E-01 7.586E-01 
1.980E-01 8.033E-01 7.494E-01 
1.990E-01 7.938E-01 7.404E-01 